The fitted function isy = 6.693153620468262x + 0.5463713017514836
location(um) 	 voltage_mean(V) 	 voltage_std(V) 
0.0	-0.08226601424938212	0.0025057196243994215
0.1	-0.06666846715887324	0.00234247746603907
0.2	-0.05210670123501335	0.0023443178176161985
0.30000000000000004	-0.0370681473551433	0.0023666224378660924
0.4	-0.02172707979566641	0.0022645456899527353
0.5	-0.007242586817445392	0.0022525776368244803
0.6000000000000001	0.007731846879429796	0.002381132966628642
0.7000000000000001	0.02295453905498455	0.0024419658322372205
0.8	0.037741545447784776	0.002048919275983628
0.9	0.05284093009032803	0.0024471649780761196
1.0	0.06746188244447357	0.002742869308886956
1.1	0.08259250465425128	0.0025950305178159927
1.2000000000000002	0.09725291506658042	0.0027839907589125024
1.3	0.11265810115185407	0.00246933854736852
1.4000000000000001	0.12748949735215573	0.002717311341969601
1.5	0.14231431703289738	0.002890151254204671
1.6	0.1572065445438597	0.0027609660178332723
1.7000000000000002	0.1718949039386373	0.002263695393856112
1.8	0.18700086374333644	0.002369461529957204
1.9000000000000001	0.2018256828903144	0.002731821735882303
2.0	0.2171815451037697	0.0024195918757514306
2.1	0.2319833466284851	0.002542944426449715
2.2	0.2469807955116203	0.002431724413853429
2.3000000000000003	0.2618730220799806	0.0022257685270078353
2.4000000000000004	0.27694281093859446	0.002579309755818283
2.5	0.2918153080787389	0.0024756135796662766
2.6	0.3067732981027878	0.002560275312050045
2.7	0.3220518868060459	0.0026367760886604414
2.8000000000000003	0.336855331488632	0.002505894280393613
2.9000000000000004	0.3518544235159941	0.002876275675669082
3.0	0.36665786793159083	0.002791758540553719
3.1	0.38157146667587327	0.002184746200122548
3.2	0.39633052022197857	0.002233183483871992
3.3000000000000003	0.41156142930195844	0.0022394204358998217
3.4000000000000004	0.4265194182421547	0.00239088868776279
3.5	0.4411962665684437	0.0024686839192254706
3.6	0.4560868472898894	0.002651738841850136
3.7	0.4710004452264802	0.002423857500635766
3.8000000000000003	0.48600118013270577	0.0027085028624953275
3.9000000000000004	0.5010709669481641	0.002636507203926609
4.0	0.5162821459068025	0.002823376265146659
4.1000000000000005	0.5309573493401321	0.0024280112676482845
4.2	0.5461668839269177	0.002861709531970419
4.3	0.5611084306867241	0.0024944093663313307
4.4	0.5758362448003255	0.0026675809686349705
4.5	0.5905821438412031	0.002702318087437872
4.6000000000000005	0.6056322005471152	0.003186594368612328
4.7	0.6206707484443906	0.0026387487716831924
4.800000000000001	0.6357684836658979	0.002679148418173601
4.9	0.6505965869795677	0.0026856455424784692
5.0	0.665534844601976	0.0024910910504485685
5.1000000000000005	0.679680647754401	0.0028753314189744767
5.2	0.695389986190421	0.0029966311637195514
5.300000000000001	0.710249326795197	0.0026061386590449463
5.4	0.725166210628108	0.0028397832540985025
5.5	0.7401718755141478	0.0029404509951472526
5.6000000000000005	0.7550279275233006	0.0028104541681828943
5.7	0.7700072866014332	0.0028178055490419435
5.800000000000001	0.7850491211926969	0.002731280467763014
5.9	0.8000991761266788	0.002792253978677763
6.0	0.8150818229879646	0.0026786108216630285
6.1000000000000005	0.8297915497804074	0.0027367161603785314
6.2	0.8446295159275959	0.0024016044222279482
6.300000000000001	0.8597075199491137	0.0026520363369488954
6.4	0.8746967426529388	0.002551068490780798
6.5	0.8895692344098604	0.0027301493690901927
6.6000000000000005	0.9043776062926142	0.002794403989598634
6.7	0.9192994206589489	0.0028210673391523534
6.800000000000001	0.9345221044357883	0.0026596771242270627
6.9	0.9492762207517498	0.0026854558303095427
7.0	0.9642177638623184	0.002602365874460638
7.1000000000000005	0.9791510863582339	0.0026255566970870906
7.2	0.9941666135098896	0.002553148465772554
7.300000000000001	1.0087924898192941	0.002955522296371797
7.4	1.023561402333324	0.002820683869080655
7.5	1.0387462709454303	0.002562872683147366
7.6000000000000005	1.0538259172884714	0.00283988405712059
7.7	1.0684501489741896	0.0025768173281893536
7.800000000000001	1.0835791179178396	0.0025969588822473653
7.9	1.098719595392699	0.0025987199028389453
8.0	1.1138123939529132	0.0028654923090431317
8.1	1.1287111890855	0.002579608652624779
8.200000000000001	1.1434603713772138	0.0026511138211291834
8.3	1.1588129366415096	0.0024953835512986733
8.4	1.1738218857737435	0.003021781586758562
8.5	1.1883211651280376	0.002706402628744849
8.6	1.202808935685008	0.002705079920785655
8.700000000000001	1.2183456391021392	0.003017222711343435
8.8	1.232978089806876	0.002521911320260115
8.9	1.2479590886397918	0.0027545225337316423
9.0	1.2632689064460063	0.0029735644030359745
9.1	1.2776892684277676	0.0027483534176941517
9.200000000000001	1.2927853535408746	0.002761248509220557
9.3	1.3081083236951798	0.0026984711316133674
9.4	1.32275885865251	0.0026984806237426795
9.5	1.337399528906982	0.0025512018072293995
9.600000000000001	1.3527833301777508	0.002866479841334071
9.700000000000001	1.3682115218820357	0.0030440332762898155
9.8	1.38267298533136	0.002695670315420474
9.9	1.397757560814801	0.002688805330601334
10.0	1.412501808412611	0.00274348440904176
10.100000000000001	1.4271868684448725	0.00266274228801362
10.200000000000001	1.4418768606322652	0.002621159853863909
10.3	1.4573379334089491	0.002992339811684867
10.4	1.4721923348617982	0.002682937922787574
10.5	1.4863956744321798	0.0024113666500982333
10.600000000000001	1.5021724130900298	0.0029594222491673397
10.700000000000001	1.5169150156585636	0.0026227540648077734
10.8	1.5319963017221758	0.0025528257641319724
10.9	1.546714242593548	0.0029370550532300216
11.0	1.5618728008609697	0.0028738103060596634
11.100000000000001	1.5766236233711632	0.0025551794815470877
11.200000000000001	1.5916802474589895	0.002881775334598948
11.3	1.6065971233175436	0.002732007402613825
11.4	1.6215435927537767	0.002923565088873803
11.5	1.6367481849972887	0.0027864183013751906
11.600000000000001	1.6515384651198068	0.0028737875735171817
11.700000000000001	1.6666197499506745	0.0025936610525762837
11.8	1.681137110013098	0.0027683359530478904
11.9	1.6962956670426874	0.0027907031463384894
12.0	1.7109264694054866	0.0028502554448731877
12.100000000000001	1.7257693599046022	0.0027161480830340447
12.200000000000001	1.7412205654457062	0.0026934949168519236
12.3	1.7559434367319926	0.002900138939975747
12.4	1.7707419362594499	0.0024919616385013156
12.5	1.7862030059477525	0.002899567955571895
12.600000000000001	1.800832163416684	0.002699257042329856
12.700000000000001	1.8156734090094508	0.0028287513227230245
12.8	1.8308023710903183	0.0027540902372175558
12.9	1.845625531368382	0.0027300769936406365
13.0	1.8605637781589217	0.0030120088719777227
13.100000000000001	1.8754461255866597	0.0029177770938234524
13.200000000000001	1.8908726682991335	0.0024564115139778307
13.3	1.905215752322777	0.0028178995322758697
13.4	1.9200339796461046	0.0025156929824596444
13.5	1.935513132975072	0.0028959035991357462
13.600000000000001	1.9501916119621483	0.002665076756560047
13.700000000000001	1.9649325664213761	0.0030263740352516836
13.8	1.9802637507943348	0.002599334206076344
13.9	1.9954831365760242	0.0026822997534606628
14.0	2.01024546386194	0.002906648014840949
14.100000000000001	2.025108080798019	0.002708071165215416
14.200000000000001	2.0398325936384336	0.002812668976913515
14.3	2.054642599274639	0.0027422396577403848
14.4	2.0700181733685756	0.0026816873635463457
14.5	2.0846522605964903	0.002977033375662759
14.600000000000001	2.0995806406485475	0.0027194295677158142
14.700000000000001	2.11523899860981	0.0027608805001459727
14.8	2.129427535776943	0.002745604154064381
14.9	2.1444726461433135	0.002737186054859609
15.0	2.1596772335536722	0.0024309283522222316
15.100000000000001	2.1742883026582067	0.0029150456291475025
15.200000000000001	2.1896293496461863	0.0027388780787263116
15.3	2.204202604309565	0.002553896576017227
15.4	2.2190717958698953	0.0026615327183268267
15.5	2.2341267699833716	0.002490268217344487
15.600000000000001	2.248905536071457	0.0029254887627996606
15.700000000000001	2.263952289438577	0.0029371370616853316
15.8	2.278349625327306	0.003046463693983314
15.9	2.293692315438885	0.0025376634835098826
16.0	2.308630558158406	0.0027208522225168202
16.1	2.323958451135661	0.0028920813711846476
16.2	2.338715843188349	0.0028592802377505667
16.3	2.3537625957327935	0.002957498817733324
16.400000000000002	2.36861205680679	0.0027748573836443987
16.5	2.383403974440707	0.003079496828627729
16.6	2.3983750982334318	0.002826006047115836
16.7	2.4135615982556424	0.0026518055141926096
16.8	2.4284488729591844	0.002836732758934193
16.900000000000002	2.4433772498867485	0.0031302412605801982
17.0	2.458425645567757	0.0026430492723396094
17.1	2.4732224946757815	0.002956438214087074
17.2	2.4878368491811496	0.0029414014544876382
17.3	2.503044721602211	0.002677893521005801
17.400000000000002	2.517775806536283	0.0030616262829024025
17.5	2.532730488161027	0.0028991676193069467
17.6	2.547999191653592	0.0028704944184954166
17.7	2.5632695390983224	0.00288464476466516
17.8	2.577403817286677	0.0024473440268070754
17.900000000000002	2.5928303534084796	0.0025547996870662493
18.0	2.6080234280081513	0.0028634773902979837
18.1	2.6222990979108265	0.0027708231100054964
18.2	2.6375168336509307	0.0027147594442364573
18.3	2.65250439606781	0.002632726124120573
18.400000000000002	2.667671164608864	0.002897858062798459
18.5	2.681818594650922	0.002641837759638255
18.6	2.6974835234379144	0.002651429919163053
18.7	2.712010738959279	0.0027206175844968926
18.8	2.727129828222277	0.0027771936818759765
18.900000000000002	2.7422439850640274	0.002670818036964055
19.0	2.756927389124286	0.002697949825142051
19.1	2.771545029291659	0.0026692062932107043
19.200000000000003	2.786960054930404	0.0026894237584896273
19.3	2.8017947152388785	0.0029437474531002115
19.400000000000002	2.8169269564270007	0.002663584496122846
19.5	2.8318717707615946	0.0025972522270536528
19.6	2.8465847677102083	0.003065818240124986
19.700000000000003	2.861366816473967	0.00281519585217994
19.8	2.8769084365013113	0.002941187550110293
19.900000000000002	2.891106831650404	0.002743144469092771
20.0	2.9062456483894032	0.002899331046881313
20.1	2.9215768239741053	0.002790505402371306
20.200000000000003	2.936543010575662	0.0025991117037795506
20.3	2.951504264758358	0.0028252474547340554
20.400000000000002	2.96592132374239	0.0029089424028252687
20.5	2.981231125549332	0.0028166374411982453
20.6	2.9965770972772066	0.002724239140154354
20.700000000000003	3.0115054690365475	0.00268948821586556
20.8	3.026136259685156	0.00261043524185269
20.900000000000002	3.040989002861743	0.0027032776501219155
21.0	3.0561393268732076	0.0028029247870357487
21.1	3.070904932810239	0.002611242717835686
21.200000000000003	3.085790557455233	0.0029477050785548507
21.3	3.100526569438732	0.002549927331186509
21.400000000000002	3.1158741841430784	0.0027028415294925944
21.5	3.1307976225347693	0.002738606079805814
21.6	3.145573092361001	0.0026517222747292884
21.700000000000003	3.1611048451315726	0.0031060475499945853
21.8	3.1753969511565265	0.0028194048775166828
21.900000000000002	3.190364779533931	0.0028159052366545103
22.0	3.205649917840253	0.0027676517606349846
22.1	3.220484574360354	0.002899632541310357
22.200000000000003	3.2350134293420365	0.0026133765940319358
22.3	3.250094699630231	0.0027108301001604455
22.400000000000002	3.265161172937627	0.002842290640768586
22.5	3.2802243579196766	0.0028065283316552375
22.6	3.294644702199268	0.002702593704166713
22.700000000000003	3.3101846740248835	0.002704209464950536
22.8	3.3251820948533277	0.002791039363001673
22.900000000000002	3.3394972167552535	0.0025659401070488885
23.0	3.354710013557318	0.0029387911797409895
23.1	3.3699836416762285	0.0027706755114521205
23.200000000000003	3.38478705893273	0.0030278398676079734
23.3	3.399873260122383	0.0029358923603814775
23.400000000000002	3.4144514363147254	0.0025837025773187187
23.5	3.4297743866769825	0.002879722831399657
23.6	3.443946471541498	0.0028758341838974466
23.700000000000003	3.4592217429213203	0.002736946844268346
23.8	3.4743885039988696	0.0023967424358175356
23.900000000000002	3.488971611806615	0.0026978318988211034
24.0	3.504435953496145	0.0026330342897272372
24.1	3.5192344372570985	0.0029038615893099947
24.200000000000003	3.53420226249185	0.002959470188875164
24.3	3.5489974577980137	0.002738129104919713
24.400000000000002	3.5638830780983697	0.002804165264388899
24.5	3.5786947140682672	0.002725529735719377
24.6	3.593894355902033	0.0030123444489972596
24.700000000000003	3.6083081210463455	0.0027800230499706938
24.8	3.6233006068643716	0.002755173987750799
24.900000000000002	3.6389441534401827	0.002615387943014138
25.0	3.6534812251729205	0.003133161916590736
25.1	3.6683405390334576	0.002727736326950584
25.200000000000003	3.683323159742463	0.0028283061212049307
25.3	3.6980049112754845	0.002799584514345261
25.400000000000002	3.713280180283669	0.002854424032730951
25.5	3.7274966532065266	0.0027105860009079687
25.6	3.743398321396671	0.0028144140963372037
25.700000000000003	3.758144192019571	0.0027051421611310657
25.8	3.7729936403704336	0.0027444261508123868
25.900000000000002	3.788275485050674	0.0026489185692474943
26.0	3.8028125554569887	0.002830988277910948
26.1	3.8175140350335757	0.0026854511412061806
26.200000000000003	3.833238140307494	0.00273963268718842
26.3	3.8478130244523476	0.002823881737144116
26.400000000000002	3.862453672185431	0.002689064165448824
26.5	3.87809228419498	0.002722311589917378
26.6	3.8926589474748448	0.0031455063878991427
26.700000000000003	3.9075412764631983	0.0026291050365927554
26.8	3.9227129656628184	0.0025520214312645968
26.900000000000002	3.9369836918290666	0.002796349690665936
27.0	3.9520074123987023	0.002658147341163195
27.1	3.967481614267528	0.0028455058129049668
27.200000000000003	3.9822521442623158	0.0025436060756208172
27.3	3.9972035243314354	0.0029345463150852917
27.400000000000002	4.011632082755801	0.003048085521001526
27.5	4.0273857798331925	0.00282773968767438
27.6	4.042024781865011	0.002854099104951104
27.700000000000003	4.056874227637841	0.002698572288693589
27.8	4.071817386561437	0.0026071785980348386
27.900000000000002	4.086798359480501	0.0027665952816012715
28.0	4.101536006542168	0.0028791795303656034
28.1	4.116752084443339	0.0029558898245353716
28.200000000000003	4.131807041120777	0.003066089579538771
28.3	4.146531535035986	0.002735546878857113
28.400000000000002	4.161614441014603	0.0024525101401852885
28.5	4.176840382911433	0.0028894894019266563
28.6	4.191423484455843	0.002649876948169581
28.700000000000003	4.206343624851754	0.002977888786409206
28.8	4.221581074980464	0.00297785245034288
28.900000000000002	4.2362151429948645	0.002856359481539964
29.0	4.251127062519508	0.0028091259042723406
29.1	4.266183662051253	0.0028153619393993658
29.200000000000003	4.281031461693801	0.002810063394017297
29.3	4.295805277038529	0.002784104525033054
29.400000000000002	4.310973674447923	0.0027604131805740277
29.5	4.326084528479218	0.0030109214070015424
29.6	4.3404193707291645	0.002734528603374533
29.700000000000003	4.355757109245869	0.0029289658077209907
29.8	4.370565449855693	0.0028435556559011374
29.900000000000002	4.385893323534864	0.0029388238184436906
30.0	4.400496152320784	0.002985298327677179
30.1	4.415289695693848	0.002582206605190176
30.200000000000003	4.430532076149931	0.002561601439030243
30.3	4.444996800778208	0.0027804046903494267
30.400000000000002	4.4607044590895795	0.0028632877082272034
30.5	4.47546676416247	0.0026296386911964418
30.6	4.490243865932296	0.0026046153347039644
30.700000000000003	4.505034120306732	0.0025628646318841194
30.8	4.519880273684146	0.0028742001347022055
30.900000000000002	4.5349746848594235	0.0028545608509533567
31.0	4.550171029614689	0.0028404162063016564
31.1	4.565064861256915	0.002801160717161796
31.200000000000003	4.579804148094197	0.0028351887720120556
31.3	4.595087629318931	0.0028096063876534836
31.400000000000002	4.609701964878424	0.002837068657485775
31.5	4.624248892527707	0.0028826407847700472
31.6	4.639770766699293	0.002994627559517622
31.700000000000003	4.654514985138441	0.002834387681499001
31.8	4.669865873440654	0.002801098779212292
31.900000000000002	4.684656126186884	0.0027225113043709264
32.0	4.69955653296975	0.002670134647572813
32.1	4.714350073630557	0.0028081627066697495
32.2	4.729360634311055	0.0026815212239174407
32.300000000000004	4.744397500325665	0.002923285831449403
32.4	4.759084174597483	0.002802520662569129
32.5	4.773517658564714	0.0027996290149441033
32.6	4.789059260420041	0.002815684094145493
32.7	4.803648932861702	0.0027628084262095462
32.800000000000004	4.8188419869301375	0.002620106503248037
32.9	4.83389364894727	0.0028751798328699968
33.0	4.84911136411268	0.0029920648680399698
33.1	4.864218924976371	0.003108385710504897
33.2	4.879155500140946	0.0029069404922630448
33.300000000000004	4.893852037750256	0.0028234256965554844
33.4	4.9086998316805825	0.0029731637008116787
33.5	4.9238320533710915	0.0025425018395347485
33.6	4.938206348571665	0.0031717557530036573
33.7	4.953391180927786	0.0024576610593876926
33.800000000000004	4.968171566550407	0.002791200707372207
33.9	4.983497790522499	0.0026111154400956928
34.0	4.998467246428514	0.003221364515943885
34.1	5.013101307474671	0.002843561663650776
34.2	5.0278340138951565	0.002706085156526272
34.300000000000004	5.043158593213716	0.002897409818876461
34.4	5.057840332518706	0.0026291689827177937
34.5	5.072771973632166	0.0031805926452695204
34.6	5.088065314786689	0.0027440826435889535
34.7	5.102590864975561	0.0027275654630051255
34.800000000000004	5.118425112011093	0.0031203625664741387
34.9	5.132797761404954	0.00284166346245204
35.0	5.147627468150586	0.002538383268802374
35.1	5.162680771222977	0.0025319390157759994
35.2	5.177628852291736	0.003042342120177211
35.300000000000004	5.192364845407845	0.0027001550650662715
35.4	5.207365537135206	0.0030812416944683584
35.5	5.222093309524655	0.0025702068380214892
35.6	5.237143323725189	0.002831312789800233
35.7	5.251959876787823	0.0028281719895530805
35.800000000000004	5.267085518923425	0.0026179286085131156
35.9	5.281599558874318	0.0030216577202736767
36.0	5.296544350669755	0.0027862845056979067
36.1	5.312271729873007	0.00320062176690312
36.2	5.326933737654136	0.003095862216285093
36.300000000000004	5.3414905234504815	0.0028179765885564955
36.4	5.356645758399776	0.002846503018414199
36.5	5.372042674647466	0.002683567689484908
36.6	5.386675088244973	0.0025035787552610943
36.7	5.40189773052057	0.0025966319555411556
36.800000000000004	5.416632077514046	0.0030397022112139656
36.9	5.431231608884068	0.002486820662051095
37.0	5.44619284021828	0.0027842481883561658
37.1	5.461397396932484	0.0028839049132422094
37.2	5.476000216082987	0.002656517847065317
37.300000000000004	5.4910535161189	0.002730015464164672
37.4	5.506294242422757	0.0025221260623689633
37.5	5.52120121805433	0.00309043287274071
37.6	5.5357382730178655	0.0028481122952991743
37.7	5.551025033457649	0.0028079379402640306
37.800000000000004	5.565706768182349	0.0027468779332719883
37.9	5.580950781968754	0.0028597618565258352
38.0	5.595880774194466	0.0025640149092983977
38.1	5.610940649484994	0.0031292303221838133
38.2	5.626053135554199	0.0032291959508852813
38.300000000000004	5.640540866846557	0.002781771134658333
38.400000000000006	5.656072595880574	0.0027974059702171594
38.5	5.670358103696887	0.0027324299815255876
38.6	5.685699117877447	0.002987359685993386
38.7	5.70075570415521	0.002916385429780346
38.800000000000004	5.715365097521465	0.0025556595928826337
38.900000000000006	5.730650212181212	0.0029149396036022416
39.0	5.745599932124267	0.003131567933545278
39.1	5.760183019631374	0.002637215797507265
39.2	5.775165621123319	0.002796648593164538
39.300000000000004	5.7900841029283585	0.0028454442104057674
39.400000000000006	5.805262350972116	0.0029030661982974324
39.5	5.820093695679873	0.0027670197553224334
39.6	5.835115754802434	0.0029911685551567827
39.7	5.849978336965385	0.0030089002340236352
39.800000000000004	5.864980666720956	0.0030622273705572176
39.900000000000006	5.8802476949751465	0.002716961084142214
